Time(s)	PK(47,82)
 0.0000000e+00	 1.6000000e+05
 1.0005618e+00	 1.6222103e+05
 2.0000894e+00	 1.6795073e+05
 3.0001235e+00	 1.7414966e+05
 4.0000744e+00	 1.8310862e+05
 5.0000405e+00	 1.8707394e+05
 6.0000234e+00	 1.8897511e+05
 7.0002379e+00	 1.8988025e+05
 8.0000887e+00	 1.9124273e+05
 9.0000124e+00	 1.9196205e+05
 1.0000108e+01	 1.9205605e+05
 1.1000061e+01	 1.9215988e+05
 1.2000055e+01	 1.9264711e+05
 1.3000238e+01	 1.9296966e+05
 1.4000112e+01	 1.9317697e+05
 1.5000147e+01	 1.9343606e+05
 1.6000036e+01	 1.9366342e+05
 1.7000031e+01	 1.9394111e+05
 1.8000051e+01	 1.9414955e+05
 1.9000219e+01	 1.9434652e+05
 2.0000223e+01	 1.9452186e+05
 2.1000031e+01	 1.9467742e+05
 2.2000093e+01	 1.9481016e+05
 2.3000038e+01	 1.9496631e+05
 2.4000010e+01	 1.9514731e+05
 2.5000067e+01	 1.9521831e+05
 2.6000111e+01	 1.9528803e+05
 2.7000292e+01	 1.9541341e+05
 2.8000111e+01	 1.9553333e+05
 2.9000072e+01	 1.9566467e+05
 3.0000034e+01	 1.9575539e+05
 3.1000008e+01	 1.9592003e+05
 3.2000217e+01	 1.9596734e+05
 3.3000145e+01	 1.9605767e+05
 3.4000019e+01	 1.9616352e+05
 3.5000225e+01	 1.9628144e+05
 3.6000263e+01	 1.9635480e+05
 3.7000000e+01	 1.9639506e+05
 3.8000050e+01	 1.9649388e+05
 3.9000404e+01	 1.9658933e+05
 4.0000118e+01	 1.9672677e+05
 4.1000126e+01	 1.9684198e+05
 4.2000221e+01	 1.9695175e+05
 4.3000244e+01	 1.9701091e+05
 4.4000210e+01	 1.9704966e+05
 4.5000088e+01	 1.9712077e+05
 4.6000092e+01	 1.9717080e+05
 4.7000141e+01	 1.9726539e+05
 4.8000240e+01	 1.9735553e+05
 4.9000008e+01	 1.9741958e+05
 5.0000221e+01	 1.9748023e+05
 5.1000072e+01	 1.9753791e+05
 5.2000053e+01	 1.9763066e+05
 5.3000069e+01	 1.9770986e+05
 5.4000187e+01	 1.9781506e+05
 5.5000172e+01	 1.9787086e+05
 5.6000126e+01	 1.9792945e+05
 5.7000072e+01	 1.9797945e+05
 5.8000153e+01	 1.9804312e+05
 5.9000050e+01	 1.9813334e+05
 6.0000069e+01	 1.9818348e+05
 6.1000160e+01	 1.9825692e+05
 6.2000050e+01	 1.9831592e+05
 6.3000099e+01	 1.9835778e+05
 6.4000069e+01	 1.9844034e+05
 6.5000206e+01	 1.9848745e+05
 6.6000069e+01	 1.9856462e+05
 6.7000069e+01	 1.9862469e+05
 6.8000008e+01	 1.9867891e+05
 6.9000237e+01	 1.9874170e+05
 7.0000122e+01	 1.9878544e+05
 7.1000031e+01	 1.9886906e+05
 7.2000282e+01	 1.9892670e+05
 7.3000183e+01	 1.9899147e+05
 7.4000183e+01	 1.9904802e+05
 7.5000305e+01	 1.9908958e+05
 7.6000069e+01	 1.9914502e+05
 7.7000076e+01	 1.9918909e+05
 7.8000130e+01	 1.9925706e+05
 7.9000114e+01	 1.9931270e+05
 8.0000267e+01	 1.9936111e+05
 8.1000061e+01	 1.9940281e+05
 8.2000206e+01	 1.9943648e+05
 8.3000099e+01	 1.9950641e+05
 8.4000252e+01	 1.9955291e+05
 8.5000237e+01	 1.9961417e+05
 8.6000008e+01	 1.9965308e+05
 8.7000046e+01	 1.9969084e+05
 8.8000107e+01	 1.9973841e+05
 8.9000130e+01	 1.9978228e+05
 9.0000092e+01	 1.9985086e+05
 9.1000298e+01	 1.9988878e+05
 9.2000191e+01	 1.9995422e+05
 9.3000099e+01	 2.0000802e+05
 9.4000137e+01	 2.0003569e+05
 9.5000000e+01	 2.0009714e+05
 9.6000092e+01	 2.0013098e+05
 9.7000175e+01	 2.0018022e+05
 9.8000183e+01	 2.0021178e+05
 9.9000107e+01	 2.0024291e+05
 1.0000025e+02	 2.0027845e+05
 1.0100002e+02	 2.0030427e+05
 1.0200014e+02	 2.0034128e+05
 1.0300003e+02	 2.0036914e+05
 1.0400006e+02	 2.0040077e+05
 1.0500019e+02	 2.0042062e+05
 1.0600016e+02	 2.0044366e+05
 1.0700005e+02	 2.0047508e+05
 1.0800005e+02	 2.0049798e+05
 1.0900005e+02	 2.0052827e+05
 1.1000010e+02	 2.0055419e+05
 1.1100005e+02	 2.0057941e+05
 1.1200005e+02	 2.0059917e+05
 1.1300011e+02	 2.0061456e+05
 1.1400004e+02	 2.0064712e+05
 1.1500005e+02	 2.0067033e+05
 1.1600015e+02	 2.0070231e+05
 1.1700007e+02	 2.0072159e+05
 1.1800004e+02	 2.0074527e+05
 1.1900003e+02	 2.0076623e+05
 1.2000007e+02	 2.0078392e+05
 1.2100005e+02	 2.0081373e+05
 1.2200008e+02	 2.0083339e+05
 1.2300022e+02	 2.0086459e+05
 1.2400007e+02	 2.0087923e+05
 1.2500008e+02	 2.0090284e+05
 1.2600005e+02	 2.0093588e+05
 1.2700005e+02	 2.0094850e+05
 1.2800008e+02	 2.0097966e+05
 1.2900026e+02	 2.0099881e+05
 1.3000006e+02	 2.0102159e+05
 1.3100023e+02	 2.0104338e+05
 1.3200002e+02	 2.0107019e+05
 1.3300009e+02	 2.0109877e+05
 1.3400003e+02	 2.0111733e+05
 1.3500020e+02	 2.0114295e+05
 1.3600014e+02	 2.0115611e+05
 1.3700008e+02	 2.0117527e+05
 1.3800002e+02	 2.0120152e+05
 1.3900027e+02	 2.0099497e+05
 1.4000012e+02	 2.0085139e+05
 1.4100006e+02	 2.0076894e+05
 1.4200020e+02	 2.0071188e+05
 1.4300023e+02	 2.0067138e+05
 1.4400017e+02	 2.0064316e+05
 1.4500008e+02	 2.0062153e+05
 1.4600002e+02	 2.0060459e+05
 1.4700005e+02	 2.0059592e+05
 1.4800018e+02	 2.0058439e+05
 1.4900020e+02	 2.0058103e+05
 1.5000011e+02	 2.0057686e+05
 1.5100027e+02	 2.0058130e+05
 1.5200009e+02	 2.0058738e+05
 1.5300018e+02	 2.0059062e+05
 1.5400015e+02	 2.0060198e+05
 1.5500002e+02	 2.0021519e+05
 1.5600008e+02	 1.9990661e+05
 1.5700009e+02	 1.9966784e+05
 1.5800018e+02	 1.9950427e+05
 1.5900018e+02	 1.9938392e+05
 1.6000003e+02	 1.9929727e+05
 1.6100005e+02	 1.9923789e+05
 1.6200008e+02	 1.9918958e+05
 1.6300006e+02	 1.9916397e+05
 1.6400012e+02	 1.9902697e+05
 1.6410002e+02	 4.8046912e+05
 1.6420000e+02	 1.0579606e+06
 1.6430002e+02	 6.7992688e+05
 1.6440001e+02	 4.7113241e+05
 1.6450003e+02	 5.9432850e+05
 1.6460002e+02	 6.9733912e+05
 1.6470001e+02	 5.2951781e+05
 1.6480003e+02	 5.2032303e+05
 1.6490002e+02	 6.0911625e+05
 1.6500003e+02	 5.7333569e+05
 1.6510007e+02	 5.2455512e+05
 1.6520001e+02	 5.6315862e+05
 1.6530002e+02	 5.7332412e+05
 1.6540002e+02	 5.3843838e+05
 1.6550002e+02	 5.7748125e+05
 1.6560004e+02	 5.6980575e+05
 1.6570004e+02	 5.5124025e+05
 1.6580003e+02	 5.8042819e+05
 1.6590004e+02	 5.4715638e+05
 1.6600005e+02	 5.7499944e+05
 1.6610001e+02	 5.5492344e+05
 1.6620007e+02	 5.6809750e+05
 1.6630000e+02	 5.5970438e+05
 1.6640010e+02	 5.6750812e+05
 1.6650000e+02	 5.6039788e+05
 1.6660007e+02	 5.6704762e+05
 1.6670003e+02	 5.7068131e+05
 1.6680000e+02	 5.6995188e+05
 1.6690005e+02	 5.7270694e+05
 1.6700006e+02	 5.7581250e+05
 1.6710001e+02	 5.7666131e+05
 1.6720006e+02	 5.7699756e+05
 1.6730003e+02	 5.7752231e+05
 1.6740001e+02	 5.7804856e+05
 1.6750000e+02	 5.7920806e+05
 1.6760002e+02	 5.8021581e+05
 1.6770000e+02	 5.8152919e+05
 1.6780000e+02	 5.8161300e+05
 1.6790001e+02	 5.8214319e+05
 1.6800005e+02	 5.8389925e+05
 1.6810002e+02	 5.8522812e+05
 1.6820003e+02	 5.8550775e+05
 1.6830003e+02	 5.8693006e+05
 1.6840002e+02	 5.8865112e+05
 1.6850000e+02	 5.9061706e+05
 1.6860008e+02	 5.9164531e+05
 1.6870001e+02	 5.9252562e+05
 1.6880006e+02	 5.9320194e+05
 1.6890001e+02	 5.9371094e+05
 1.6900002e+02	 5.9424425e+05
 1.6910005e+02	 5.9476456e+05
 1.6920010e+02	 5.9500519e+05
 1.6930003e+02	 5.9514069e+05
 1.6940005e+02	 5.9527269e+05
 1.6950003e+02	 5.9583438e+05
 1.6960005e+02	 5.9697694e+05
 1.6970004e+02	 5.9779131e+05
 1.6980008e+02	 5.9783850e+05
 1.6990001e+02	 5.9735081e+05
 1.7000003e+02	 5.9666431e+05
