Time(s)	TLK1(41,63)
 0.0000000e+00	 6.0300000e+02
 1.0005618e+00	 6.0300000e+02
 2.0000894e+00	 6.0300000e+02
 3.0001235e+00	 6.0300006e+02
 4.0000744e+00	 6.0300006e+02
 5.0000405e+00	 6.0300012e+02
 6.0000234e+00	 6.0300012e+02
 7.0002379e+00	 6.0300006e+02
 8.0000887e+00	 6.0299976e+02
 9.0000124e+00	 6.0299921e+02
 1.0000108e+01	 6.0299847e+02
 1.1000061e+01	 6.0299731e+02
 1.2000055e+01	 6.0299573e+02
 1.3000238e+01	 6.0299365e+02
 1.4000112e+01	 6.0299158e+02
 1.5000147e+01	 6.0298987e+02
 1.6000036e+01	 6.0298853e+02
 1.7000031e+01	 6.0298749e+02
 1.8000051e+01	 6.0298657e+02
 1.9000219e+01	 6.0298566e+02
 2.0000223e+01	 6.0298468e+02
 2.1000031e+01	 6.0298352e+02
 2.2000093e+01	 6.0298236e+02
 2.3000038e+01	 6.0298114e+02
 2.4000010e+01	 6.0297992e+02
 2.5000067e+01	 6.0297876e+02
 2.6000111e+01	 6.0297754e+02
 2.7000292e+01	 6.0297644e+02
 2.8000111e+01	 6.0297516e+02
 2.9000072e+01	 6.0297394e+02
 3.0000034e+01	 6.0297284e+02
 3.1000008e+01	 6.0297162e+02
 3.2000217e+01	 6.0297058e+02
 3.3000145e+01	 6.0296948e+02
 3.4000019e+01	 6.0296844e+02
 3.5000225e+01	 6.0296741e+02
 3.6000263e+01	 6.0296631e+02
 3.7000000e+01	 6.0296533e+02
 3.8000050e+01	 6.0296423e+02
 3.9000404e+01	 6.0296338e+02
 4.0000118e+01	 6.0296240e+02
 4.1000126e+01	 6.0296149e+02
 4.2000221e+01	 6.0296063e+02
 4.3000244e+01	 6.0295972e+02
 4.4000210e+01	 6.0295898e+02
 4.5000088e+01	 6.0295819e+02
 4.6000092e+01	 6.0295752e+02
 4.7000141e+01	 6.0295679e+02
 4.8000240e+01	 6.0295605e+02
 4.9000008e+01	 6.0295538e+02
 5.0000221e+01	 6.0295471e+02
 5.1000072e+01	 6.0295410e+02
 5.2000053e+01	 6.0295343e+02
 5.3000069e+01	 6.0295282e+02
 5.4000187e+01	 6.0295221e+02
 5.5000172e+01	 6.0295154e+02
 5.6000126e+01	 6.0295099e+02
 5.7000072e+01	 6.0295044e+02
 5.8000153e+01	 6.0295001e+02
 5.9000050e+01	 6.0294952e+02
 6.0000069e+01	 6.0294916e+02
 6.1000160e+01	 6.0294873e+02
 6.2000050e+01	 6.0294830e+02
 6.3000099e+01	 6.0294806e+02
 6.4000069e+01	 6.0294775e+02
 6.5000206e+01	 6.0294745e+02
 6.6000069e+01	 6.0294720e+02
 6.7000069e+01	 6.0294696e+02
 6.8000008e+01	 6.0294678e+02
 6.9000237e+01	 6.0294653e+02
 7.0000122e+01	 6.0294641e+02
 7.1000031e+01	 6.0294623e+02
 7.2000282e+01	 6.0294604e+02
 7.3000183e+01	 6.0294592e+02
 7.4000183e+01	 6.0294574e+02
 7.5000305e+01	 6.0294568e+02
 7.6000069e+01	 6.0294537e+02
 7.7000076e+01	 6.0294525e+02
 7.8000130e+01	 6.0294507e+02
 7.9000114e+01	 6.0294489e+02
 8.0000267e+01	 6.0294482e+02
 8.1000061e+01	 6.0294458e+02
 8.2000206e+01	 6.0294452e+02
 8.3000099e+01	 6.0294434e+02
 8.4000252e+01	 6.0294427e+02
 8.5000237e+01	 6.0294421e+02
 8.6000008e+01	 6.0294409e+02
 8.7000046e+01	 6.0294409e+02
 8.8000107e+01	 6.0294403e+02
 8.9000130e+01	 6.0294403e+02
 9.0000092e+01	 6.0294397e+02
 9.1000298e+01	 6.0294379e+02
 9.2000191e+01	 6.0294360e+02
 9.3000099e+01	 6.0294342e+02
 9.4000137e+01	 6.0294336e+02
 9.5000000e+01	 6.0294312e+02
 9.6000092e+01	 6.0294293e+02
 9.7000175e+01	 6.0294269e+02
 9.8000183e+01	 6.0294232e+02
 9.9000107e+01	 6.0294202e+02
 1.0000025e+02	 6.0294165e+02
 1.0100002e+02	 6.0294147e+02
 1.0200014e+02	 6.0294122e+02
 1.0300003e+02	 6.0294098e+02
 1.0400006e+02	 6.0294080e+02
 1.0500019e+02	 6.0294049e+02
 1.0600016e+02	 6.0294031e+02
 1.0700005e+02	 6.0293988e+02
 1.0800005e+02	 6.0293976e+02
 1.0900005e+02	 6.0293964e+02
 1.1000010e+02	 6.0293945e+02
 1.1100005e+02	 6.0293921e+02
 1.1200005e+02	 6.0293903e+02
 1.1300011e+02	 6.0293896e+02
 1.1400004e+02	 6.0293878e+02
 1.1500005e+02	 6.0293872e+02
 1.1600015e+02	 6.0293866e+02
 1.1700007e+02	 6.0293842e+02
 1.1800004e+02	 6.0293854e+02
 1.1900003e+02	 6.0293848e+02
 1.2000007e+02	 6.0293848e+02
 1.2100005e+02	 6.0293842e+02
 1.2200008e+02	 6.0293835e+02
 1.2300022e+02	 6.0293829e+02
 1.2400007e+02	 6.0293799e+02
 1.2500008e+02	 6.0293805e+02
 1.2600005e+02	 6.0293799e+02
 1.2700005e+02	 6.0293799e+02
 1.2800008e+02	 6.0293799e+02
 1.2900026e+02	 6.0293799e+02
 1.3000006e+02	 6.0293793e+02
 1.3100023e+02	 6.0293793e+02
 1.3200002e+02	 6.0293799e+02
 1.3300009e+02	 6.0293799e+02
 1.3400003e+02	 6.0293793e+02
 1.3500020e+02	 6.0293793e+02
 1.3600014e+02	 6.0293781e+02
 1.3700008e+02	 6.0293787e+02
 1.3800002e+02	 6.0293781e+02
 1.3900027e+02	 6.0293781e+02
 1.4000012e+02	 6.0293726e+02
 1.4100006e+02	 6.0293604e+02
 1.4200020e+02	 6.0293341e+02
 1.4300023e+02	 6.0292865e+02
 1.4400017e+02	 6.0292212e+02
 1.4500008e+02	 6.0291376e+02
 1.4600002e+02	 6.0290417e+02
 1.4700005e+02	 6.0289386e+02
 1.4800018e+02	 6.0288257e+02
 1.4900020e+02	 6.0287146e+02
 1.5000011e+02	 6.0286005e+02
 1.5100027e+02	 6.0284924e+02
 1.5200009e+02	 6.0283856e+02
 1.5300018e+02	 6.0282819e+02
 1.5400015e+02	 6.0281866e+02
 1.5500002e+02	 6.0280914e+02
 1.5600008e+02	 6.0279987e+02
 1.5700009e+02	 6.0278906e+02
 1.5800018e+02	 6.0277643e+02
 1.5900018e+02	 6.0276074e+02
 1.6000003e+02	 6.0274054e+02
 1.6100005e+02	 6.0271729e+02
 1.6200008e+02	 6.0268951e+02
 1.6300006e+02	 6.0265991e+02
 1.6400012e+02	 6.0262854e+02
 1.6410002e+02	 6.0290845e+02
 1.6420000e+02	 6.0300977e+02
 1.6430002e+02	 6.0470587e+02
 1.6440001e+02	 6.0387512e+02
 1.6450003e+02	 6.0503680e+02
 1.6460002e+02	 6.0291699e+02
 1.6470001e+02	 6.0750995e+02
 1.6480003e+02	 6.0989423e+02
 1.6490002e+02	 6.0740808e+02
 1.6500003e+02	 6.0547827e+02
 1.6510007e+02	 6.0355322e+02
 1.6520001e+02	 6.0300507e+02
 1.6530002e+02	 6.0472589e+02
 1.6540002e+02	 6.0611963e+02
 1.6550002e+02	 6.0711749e+02
 1.6560004e+02	 6.0463110e+02
 1.6570004e+02	 6.0147546e+02
 1.6580003e+02	 6.0185455e+02
 1.6590004e+02	 6.0405658e+02
 1.6600005e+02	 6.0398975e+02
 1.6610001e+02	 6.0368292e+02
 1.6620007e+02	 6.0283551e+02
 1.6630000e+02	 6.0412408e+02
 1.6640010e+02	 6.0323413e+02
 1.6650000e+02	 6.0281140e+02
 1.6660007e+02	 6.0280334e+02
 1.6670003e+02	 6.0306580e+02
 1.6680000e+02	 6.0185339e+02
 1.6690005e+02	 6.0274768e+02
 1.6700006e+02	 6.0232300e+02
 1.6710001e+02	 6.0226526e+02
 1.6720006e+02	 6.0252130e+02
 1.6730003e+02	 6.0260242e+02
 1.6740001e+02	 6.0285034e+02
 1.6750000e+02	 6.0358160e+02
 1.6760002e+02	 6.0310248e+02
 1.6770000e+02	 6.0248065e+02
 1.6780000e+02	 6.0263568e+02
 1.6790001e+02	 6.0236713e+02
 1.6800005e+02	 6.0253986e+02
 1.6810002e+02	 6.0238916e+02
 1.6820003e+02	 6.0216132e+02
 1.6830003e+02	 6.0247675e+02
 1.6840002e+02	 6.0260779e+02
 1.6850000e+02	 6.0269635e+02
 1.6860008e+02	 6.0267065e+02
 1.6870001e+02	 6.0276874e+02
 1.6880006e+02	 6.0256781e+02
 1.6890001e+02	 6.0273187e+02
 1.6900002e+02	 6.0274835e+02
 1.6910005e+02	 6.0271942e+02
 1.6920010e+02	 6.0277167e+02
 1.6930003e+02	 6.0306586e+02
 1.6940005e+02	 6.0241730e+02
 1.6950003e+02	 6.0243073e+02
 1.6960005e+02	 6.0242670e+02
 1.6970004e+02	 6.0247833e+02
 1.6980008e+02	 6.0260291e+02
 1.6990001e+02	 6.0271613e+02
 1.7000003e+02	 6.0279449e+02
